Delta,Theta,Alpha,Beta,Gamma,Attention
41.50352353,-0.012529299,2.770747528,0.008811319,18.47571516,3.80E+01
41.46120057,-0.055934202,2.738694198,0.189735298,16.77554742,6.00E+01
41.41887481,-0.099142741,2.703906244,0.371847852,14.33418884,5.60E+01
41.37654933,-0.142132884,2.666397785,0.554102513,11.20232351,5.30E+01
41.33422896,-0.184891807,2.626234647,0.736194469,7.501520263,4.70E+01
41.29192163,-0.227421044,2.583584317,0.918978389,3.463203396,4.00E+01
41.24963343,-0.26971272,2.538556312,1.102437238,-0.724312275,3.40E+01
41.20736727,-0.311745287,2.491130815,1.285371406,-4.959358566,4.30E+01
41.16512513,-0.353491411,2.441262489,1.46600412,-9.155789761,4.40E+01
41.122906,-0.394907189,2.388821041,1.641041412,-13.30737225,4.10E+01
41.08070971,-0.435953769,2.333692374,1.807567875,-17.3599712,4.80E+01
41.03854105,-0.476616807,2.275921623,1.96468489,-21.07716749,4.00E+01
40.99640323,-0.516874229,2.215498789,2.11075789,-24.25113083,5.40E+01
40.95429805,-0.556697894,2.152350706,2.243579788,-26.69734864,7.70E+01
40.9122285,-0.596066299,2.086460044,2.361627864,-28.22886873,9.00E+01
40.87019578,-0.634949825,2.017783532,2.462948037,-28.80001821,7.80E+01
40.82820225,-0.673326132,1.9463248,2.546371873,-28.37216716,7.80E+01
40.78625349,-0.71119074,1.872214018,2.612510927,-26.8737039,5.70E+01
40.74435297,-0.748529894,1.795521343,2.661302372,-24.33301577,5.60E+01
40.70250125,-0.785316366,1.716205636,2.691457947,-20.84190177,6.00E+01
40.66069888,-0.821524991,1.634247674,2.702160055,-16.57469265,4.40E+01
40.61894469,-0.857124247,1.549598684,2.692388825,-11.85809819,4.80E+01
40.5772383,-0.892087202,1.462230153,2.661436506,-6.960597102,4.30E+01
40.53558347,-0.926407552,1.372248685,2.610246898,-1.97664981,4.80E+01
40.49398375,-0.960078498,1.279751489,2.539682408,3.011965773,4.30E+01
40.45244262,-0.993092911,1.184815125,2.450319752,8.009456157,4.70E+01
40.41096457,-1.025451097,1.087570646,2.343654279,12.98037903,4.40E+01
40.36955241,-1.057149674,0.988139049,2.221554461,17.64466525,4.40E+01
40.3282102,-1.088192568,0.886683013,2.086522621,21.77314839,5.40E+01
40.2869444,-1.118597307,0.783453864,1.942309771,25.20430536,4.80E+01
40.2457597,-1.148373118,0.678649629,1.791944375,27.74682694,5.40E+01
40.20465873,-1.17751597,0.57237135,1.636729587,29.34724545,6.40E+01
40.16364318,-1.206017561,0.464696299,1.477601737,29.9490404,6.60E+01
40.1227119,-1.233856117,0.355622497,1.314414503,29.41607588,6.90E+01
40.08186412,-1.261011041,0.245149042,1.146828726,27.74019348,7.40E+01
40.04110216,-1.287478277,0.133377575,0.975906206,25.03821271,6.30E+01
40.0004267,-1.313244479,0.020348812,0.801600545,21.50624178,6.30E+01
39.95983715,-1.338286915,-0.093963492,0.62249018,17.50816858,6.00E+01
39.91933362,-1.362590388,-0.209537895,0.438195397,13.34403669,4.70E+01
39.87891509,-1.386140394,-0.326345592,0.249187739,9.076566836,4.70E+01
39.83858127,-1.40892929,-0.444318518,0.056758106,4.75968958,5.30E+01
39.79833419,-1.430967003,-0.563280083,-0.135680247,0.369883147,6.00E+01
39.7581742,-1.452255406,-0.683106564,-0.325494291,-4.093994687,6.60E+01
39.718099,-1.472777335,-0.803800344,-0.512656006,-8.367083381,6.00E+01
39.67810636,-1.492520074,-0.925337681,-0.696367325,-12.25138145,5.40E+01
39.63819298,-1.511469717,-1.047703284,-0.875519988,-15.6534541,4.40E+01
39.59835613,-1.529612393,-1.170876756,-1.049524826,-18.4239691,4.10E+01
39.55859636,-1.546950626,-1.294721341,-1.216537856,-20.51801857,4.40E+01
39.51891419,-1.563483874,-1.419112194,-1.375501933,-21.87482115,4.70E+01
39.47931015,-1.579204153,-1.543961058,-1.527126608,-22.31401993,5.70E+01
39.43978606,-1.594112801,-1.669114692,-1.671109236,-21.78878536,6.10E+01
39.40034329,-1.608215697,-1.794393714,-1.806016343,-20.42344555,7.00E+01
39.3609847,-1.621523468,-1.919575652,-1.930508899,-18.3994514,6.70E+01
39.32171577,-1.63405927,-2.044343235,-2.042392994,-16.04728673,6.90E+01
39.28254073,-1.645840602,-2.168417973,-2.140074836,-13.64032265,7.00E+01
39.24346156,-1.656869388,-2.291624415,-2.224128538,-11.18991497,6.90E+01
39.20447981,-1.667147157,-2.413790597,-2.295131328,-8.70506393,7.40E+01
39.16559495,-1.676669552,-2.534792289,-2.353841319,-6.144622113,6.90E+01
39.12680736,-1.68543248,-2.654490752,-2.401713839,-3.462716471,6.10E+01
39.08812141,-1.693447045,-2.772620656,-2.439619212,-0.84461806,4.40E+01
39.04954054,-1.700718858,-2.888950336,-2.469261788,1.596695717,4.10E+01
39.01106746,-1.707245638,-3.003293621,-2.493773104,3.875570914,3.80E+01
38.97270555,-1.713033024,-3.115416635,-2.515305942,5.931608267,3.50E+01
38.93445634,-1.718089229,-3.225098482,-2.534597501,7.744321611,5.30E+01
38.89632192,-1.722428376,-3.332083185,-2.551784178,9.265977456,5.10E+01
38.85830637,-1.726079447,-3.43602112,-2.565334594,10.30792672,5.60E+01
38.82041209,-1.729067481,-3.536601898,-2.57383673,10.79249412,7.00E+01
38.78263981,-1.731405382,-3.633591371,-2.577679664,10.83259604,6.30E+01
38.74498976,-1.733111515,-3.726738159,-2.57612312,10.55880535,5.70E+01
38.70746033,-1.734205653,-3.815811038,-2.567337615,10.19453748,6.10E+01
38.6700509,-1.73470794,-3.900558508,-2.550290982,9.929415475,5.40E+01
38.63276436,-1.734649536,-3.980624386,-2.523979615,9.722636851,5.40E+01
38.59560379,-1.734059811,-4.055653476,-2.488159745,9.541661303,5.30E+01
38.55857311,-1.732962399,-4.125297141,-2.444565674,9.351655846,4.40E+01
38.52167664,-1.731388306,-4.18916767,-2.393938365,9.082486048,5.10E+01
38.48491619,-1.729374197,-4.246891957,-2.334743067,8.800436046,6.30E+01
38.44829477,-1.726959427,-4.298063349,-2.26590268,8.511950414,5.70E+01
38.41181729,-1.724191187,-4.342209113,-2.186146464,8.099827821,5.40E+01
38.37548722,-1.721110903,-4.378923457,-2.09416322,7.521836965,5.00E+01
38.33930723,-1.717744259,-4.407913609,-1.990519596,6.773226964,3.40E+01
38.30327905,-1.7141138,-4.428938698,-1.875380558,5.877193627,3.80E+01
38.26740165,-1.710234777,-4.441866852,-1.748002145,4.980574781,4.40E+01
38.23167482,-1.706117871,-4.446590419,-1.608691518,4.167795403,4.40E+01
38.19610104,-1.701780644,-4.44292613,-1.458241865,3.356154196,6.10E+01
38.16068176,-1.697230443,-4.430788226,-1.297973857,2.485979471,6.90E+01
38.12541805,-1.692460998,-4.410196617,-1.130651669,1.481800624,6.30E+01
38.09031109,-1.687471427,-4.381147458,-0.958296452,0.268081249,5.70E+01
38.05535998,-1.68226628,-4.343647897,-0.780994519,-1.089370977,5.00E+01
38.02056423,-1.676852595,-4.297693218,-0.598708311,-2.542958101,3.80E+01
37.98592466,-1.671249287,-4.243190989,-0.410607874,-4.092393056,2.40E+01
37.95144057,-1.665466537,-4.180148979,-0.215844255,-5.684036548,2.30E+01
37.91711003,-1.65949097,-4.108773559,-0.015360542,-7.279066865,2.90E+01
37.88293056,-1.653311197,-4.029283397,0.190631344,-8.808652454,2.60E+01
37.84889813,-1.646914837,-3.941948432,0.402933535,-10.11731153,3.40E+01
37.81500951,-1.640287472,-3.847042805,0.621460317,-11.10055566,3.00E+01
37.78126416,-1.633430487,-3.744680928,0.845903948,-11.74394913,2.30E+01
37.74766178,-1.626342379,-3.634997372,1.075307427,-12.04793183,3.50E+01
37.7142029,-1.619014006,-3.51816273,1.306978932,-12.07865514,3.80E+01
37.68088862,-1.611444981,-3.394285435,1.538786962,-11.89644046,3.80E+01
37.6477185,-1.603638184,-3.263499243,1.770143934,-11.4617275,4.40E+01
37.6146935,-1.595602085,-3.125873338,1.999883605,-10.77848565,4.10E+01
37.58181658,-1.58735913,-2.981341266,2.226762567,-9.897576252,3.80E+01
37.54908932,-1.578921345,-2.829957391,2.449549054,-8.842198421,4.80E+01
37.51651197,-1.570277466,-2.671990296,2.665715724,-7.663652789,4.30E+01
37.48408389,-1.561411102,-2.507783423,2.873016533,-6.393032263,4.30E+01
37.45180195,-1.55229227,-2.337857824,3.069952011,-4.991438297,4.40E+01
37.41966395,-1.542890355,-2.162728525,3.254203995,-3.466563851,3.50E+01
37.387671,-1.533196171,-1.982682662,3.422877853,-1.901904718,2.90E+01
37.35582329,-1.523189724,-1.798125009,3.572811233,-0.376971636,2.30E+01
37.32412046,-1.512837956,-1.609582033,3.699947935,0.999933067,3.70E+01
37.29256266,-1.502119309,-1.417489526,3.800927643,2.134139808,3.50E+01
37.26114809,-1.491015978,-1.222303566,3.874209945,3.02179551,3.50E+01
37.22987564,-1.479520297,-1.024392517,3.918614402,3.655913145,4.30E+01
37.19874599,-1.467649479,-0.823895559,3.933801589,4.025507757,4.00E+01
37.16775834,-1.455414004,-0.621046614,3.919955175,4.153444886,4.30E+01
37.13691038,-1.442803663,-0.416285425,3.876467963,4.04666966,5.40E+01
37.10619947,-1.429818347,-0.209985362,3.803882066,3.748374983,5.10E+01
37.07562139,-1.416461719,-0.002529856,3.704267528,3.369142,4.30E+01
37.04517262,-1.402737206,0.205698599,3.579107831,2.985470574,5.30E+01
37.01485234,-1.388665143,0.414495463,3.429329667,2.617582642,4.80E+01
36.98465966,-1.374262406,0.623614531,3.255596411,2.27389723,4.40E+01
36.95459404,-1.359534744,0.832713722,3.05725906,1.909543737,5.10E+01
36.92465533,-1.344502278,1.041566208,2.834642314,1.50027353,3.80E+01
36.89484163,-1.329199845,1.250025787,2.59065614,1.119391061,3.40E+01
36.86515188,-1.313667469,1.457994177,2.327993642,0.81607207,4.00E+01
36.83558653,-1.297959556,1.665508754,2.049467549,0.618456675,4.30E+01
36.8061448,-1.282121762,1.872493611,1.758145233,0.569702893,4.10E+01
36.77682504,-1.266170412,2.078587428,1.455415742,0.661854289,4.10E+01
36.74762485,-1.250117963,2.28336347,1.143023709,0.898738348,4.30E+01
36.71853976,-1.233966824,2.486250447,0.823601093,1.328437348,3.50E+01
36.6895658,-1.217711602,2.686601804,0.49884714,1.955257315,4.10E+01
36.66070099,-1.201360535,2.883910065,0.170097668,2.73984626,4.80E+01
36.63194245,-1.184904989,3.077485176,-0.161870686,3.626649817,3.50E+01
36.6032868,-1.168312196,3.266399216,-0.497752511,4.509764418,3.40E+01
36.5747309,-1.151564572,3.449845432,-0.837134553,5.303876718,3.40E+01
36.54627037,-1.13466309,3.627141846,-1.177110132,6.0033709,3.50E+01
36.51790128,-1.117618537,3.79768444,-1.514244489,6.601815425,4.70E+01
36.48962092,-1.100470453,3.96112897,-1.843695561,7.10910018,4.10E+01
36.46142551,-1.083247671,4.116998385,-2.160529253,7.537754974,5.10E+01
36.43331005,-1.065937251,4.264404389,-2.462046458,7.832673561,4.40E+01
36.40526938,-1.048537869,4.402540444,-2.744408095,7.961440444,4.70E+01
36.37729742,-1.031055418,4.530628396,-3.002382114,7.93055624,5.30E+01
36.34938876,-1.013487885,4.64788622,-3.232068721,7.725647433,5.60E+01
36.32154025,-0.995853383,4.753861377,-3.430196476,7.345392433,5.30E+01
36.29374902,-0.978160422,4.848086597,-3.594691989,6.782381512,4.00E+01
36.26601275,-0.960392591,4.929985133,-3.726290474,5.989940018,6.10E+01
36.23832993,-0.942551018,4.999203688,-3.82515087,4.954579262,4.30E+01
36.2106984,-0.924656349,5.055530818,-3.889259881,3.718605445,2.40E+01
36.18311729,-0.906731143,5.098912408,-3.917902375,2.33061863,3.40E+01
36.15558759,-0.888814907,5.129614245,-3.91103524,0.867128654,2.40E+01
36.12810957,-0.87093807,5.147794226,-3.868606157,-0.601285792,4.40E+01
36.10068247,-0.85309596,5.15326069,-3.792343214,-2.064305882,4.30E+01
36.07330525,-0.835284286,5.145823969,-3.683665538,-3.505322838,3.80E+01
36.04597542,-0.817494733,5.125158663,-3.542747036,-4.903462889,3.00E+01
36.01869146,-0.799711825,5.091011736,-3.371517667,-6.244283704,2.90E+01
35.99145491,-0.781937737,5.043600166,-3.173940954,-7.473102102,4.00E+01
35.96426696,-0.764162897,4.983053779,-2.954615957,-8.546874057,4.80E+01
35.9371287,-0.746357201,4.909371155,-2.719792489,-9.45181108,5.10E+01
35.91004168,-0.728505191,4.822711481,-2.474924814,-10.16160304,6.00E+01
35.88300576,-0.710605375,4.723153687,-2.222202852,-10.65603423,5.30E+01
35.8560213,-0.692664762,4.610890672,-1.963552424,-10.91703961,5.70E+01
35.82908993,-0.674715612,4.486419427,-1.700049338,-10.90876972,6.10E+01
35.80221219,-0.656784749,4.350099162,-1.431923439,-10.61838661,4.40E+01
35.77538797,-0.638872039,4.202061715,-1.160940156,-10.07168865,4.30E+01
35.7486167,-0.620989738,4.04246944,-0.887093978,-9.305131557,3.40E+01
35.7218963,-0.603158658,3.871374891,-0.607707399,-8.378686505,2.60E+01
35.69522587,-0.585393694,3.688966439,-0.32205131,-7.346746775,2.60E+01
35.6686074,-0.567720984,3.495886456,-0.031927126,-6.219346943,1.70E+01
35.64204342,-0.550159351,3.292834931,0.259559428,-5.007846278,2.10E+01
35.61553782,-0.532707759,3.080602635,0.545819855,-3.719516418,4.00E+00
35.58909476,-0.51537883,2.860117276,0.82124017,-2.362761989,2.00E+01
35.56271621,-0.498204997,2.632159257,1.084881587,-0.988397666,3.80E+01
35.5364054,-0.481217975,2.397697695,1.33419697,0.361954412,4.70E+01
35.51016723,-0.464458704,2.15799586,1.565462571,1.666304149,6.30E+01
35.48400537,-0.447962918,1.914109672,1.776355443,2.892294652,6.00E+01
35.45792296,-0.431739317,1.666824491,1.963215704,4.020969218,5.60E+01
35.43192216,-0.415796888,1.416773057,2.124027036,5.032191891,5.30E+01
35.40600247,-0.400144244,1.164194804,2.260569513,5.887408654,6.90E+01
35.38016421,-0.384779526,0.909362807,2.372957192,6.569800996,6.90E+01
35.35441016,-0.36970515,0.652932701,2.458639391,7.09275071,8.80E+01
35.32874208,-0.354911569,0.395303632,2.515831341,7.480088053,8.40E+01
35.3031613,-0.340368273,0.136643158,2.541918503,7.780576369,7.40E+01
35.27766938,-0.326054639,-0.122771942,2.535086565,8.031307266,7.40E+01
35.25226613,-0.311966785,-0.382766052,2.497372203,8.22056383,6.30E+01
35.22695191,-0.298104106,-0.64305813,2.43065889,8.333201716,8.00E+01
35.2017285,-0.284481959,-0.903022992,2.336447275,8.341492766,8.00E+01
35.1765962,-0.27110865,-1.16231954,2.218040626,8.216220038,6.70E+01
35.15155374,-0.257961588,-1.421120122,2.078908642,7.970713776,7.50E+01
35.12659941,-0.245025053,-1.679603476,1.923955825,7.602792925,4.00E+01
35.10173011,-0.232289223,-1.938113197,1.760836244,7.085238172,2.70E+01
35.07694374,-0.219737482,-2.196872135,1.595517396,6.410490033,2.70E+01
35.05224156,-0.207365837,-2.455444787,1.430529943,5.573764036,1.70E+01
35.02762527,-0.195164212,-2.713344639,1.267505543,4.582931364,2.90E+01
35.00309771,-0.183105604,-2.970022273,1.105453632,3.483680146,5.10E+01
34.97866272,-0.171174558,-3.224653246,0.943177727,2.3055063,5.60E+01
34.95432281,-0.159368682,-3.476501083,0.78267687,1.039249227,5.70E+01
34.93008244,-0.147687223,-3.72447616,0.623633478,-0.315867131,6.60E+01
34.90594878,-0.136141358,-3.966914322,0.463047103,-1.765238826,5.10E+01
34.88192751,-0.124734704,-4.202462027,0.299910541,-3.308929351,4.10E+01
34.85802243,-0.113444636,-4.43031287,0.134410658,-4.904087243,4.00E+01
34.83423642,-0.10224727,-4.649819531,-0.031626569,-6.509299552,5.60E+01
34.81056947,-0.091113533,-4.860871108,-0.192085786,-8.090262012,5.00E+01
34.78702282,-0.080009755,-5.063169772,-0.342622807,-9.593878116,5.60E+01
34.76360232,-0.068917205,-5.255484209,-0.484073317,-10.96749549,6.00E+01
34.74031271,-0.05780794,-5.436843984,-0.615903124,-12.14453581,4.00E+01
34.71715808,-0.046639062,-5.606512509,-0.737293236,-13.02911105,4.40E+01
34.69414311,-0.035379464,-5.763594805,-0.848268735,-13.54945031,5.00E+01
34.67126981,-0.024008254,-5.907660365,-0.945991064,-13.67930252,5.00E+01
34.64854087,-0.012512642,-6.038143934,-1.029097994,-13.40855356,6.10E+01
34.62596114,-0.000901393,-6.154004655,-1.099448802,-12.7646798,5.60E+01
34.60353334,0.010820497,-6.254649074,-1.156884441,-11.78199859,5.10E+01
34.58125827,0.022668042,-6.339987783,-1.199371041,-10.46020185,5.00E+01
34.55913591,0.034645206,-6.410070765,-1.224822128,-8.832718643,4.80E+01
34.53716376,0.046748355,-6.465425238,-1.229179728,-6.970927949,4.70E+01
34.51534039,0.05897625,-6.506407208,-1.209748012,-4.930883685,5.40E+01
34.49366825,0.071315801,-6.532583705,-1.168164915,-2.766423101,5.60E+01
34.47214975,0.0837575,-6.543564306,-1.106202531,-0.520858078,6.00E+01
34.45078817,0.096304791,-6.538870063,-1.026381517,1.803836985,7.80E+01
34.42958694,0.108947466,-6.517972146,-0.932380439,4.173764846,8.10E+01
34.40854626,0.121657283,-6.480954878,-0.826193495,6.484577629,8.70E+01
34.38766749,0.134403002,-6.427698424,-0.711539007,8.635578917,7.50E+01
34.36695389,0.147142092,-6.357693388,-0.594906126,10.51506431,6.10E+01
34.34640715,0.159836849,-6.270780375,-0.480911488,12.0207288,6.00E+01
34.32602849,0.172474319,-6.166972522,-0.371930372,13.12595477,5.30E+01
34.30581817,0.185041977,-6.046493027,-0.269162365,13.80891596,5.40E+01
34.28577353,0.197530361,-5.910155577,-0.170455728,14.0476967,4.70E+01
34.26589296,0.209937273,-5.758613233,-0.074185047,13.85826604,4.40E+01
34.2461776,0.222251258,-5.591978662,0.017656127,13.25904859,4.00E+01
34.22662775,0.234472694,-5.410571772,0.105038862,12.31008411,4.80E+01
34.2072438,0.24662144,-5.214764418,0.189600143,11.14196795,5.70E+01
34.18802586,0.258703552,-5.004986149,0.271615802,9.853040274,5.40E+01
34.16897125,0.270705634,-4.78222684,0.351793599,8.473793178,5.30E+01
34.1500775,0.282605903,-4.547462053,0.429406876,7.022338014,5.40E+01
34.13134291,0.294359226,-4.301514631,0.500153521,5.46326894,4.40E+01
34.11276438,0.305926369,-4.045528492,0.561569252,3.784664831,4.40E+01
34.09433841,0.317300351,-3.780802897,0.614957632,2.08858306,4.00E+01
34.07606067,0.328462702,-3.508820147,0.660902979,0.451825125,3.40E+01
34.05792495,0.339385678,-3.231466704,0.70057898,-1.074001834,4.40E+01
34.03992638,0.350050372,-2.950361903,0.735307069,-2.420062977,5.30E+01
34.02206312,0.360427423,-2.66648504,0.763384817,-3.577501711,5.30E+01
34.00433409,0.370497159,-2.380659033,0.784059249,-4.526047559,5.60E+01
33.98674025,0.380264297,-2.09330843,0.798363693,-5.196844267,6.00E+01
33.96928307,0.38972077,-1.804739632,0.805802189,-5.574184509,5.30E+01
33.95196198,0.398839164,-1.515688068,0.805321071,-5.69542505,7.80E+01
33.93477843,0.40759529,-1.226456242,0.795332128,-5.621708435,8.10E+01
33.91773633,0.41595704,-0.936809941,0.772207242,-5.478590387,7.50E+01
33.90083854,0.423896938,-0.646767351,0.733678875,-5.362275783,8.40E+01
33.8840875,0.431413378,-0.356500691,0.680695826,-5.264158924,7.40E+01
33.86748503,0.438502666,-0.066337526,0.614552974,-5.17156931,7.40E+01
33.85103039,0.445158125,0.222816396,0.537891639,-5.042913529,7.50E+01
33.83472475,0.451383066,0.51044847,0.453770657,-4.83461828,6.60E+01
33.81857369,0.45717784,0.797031429,0.363019588,-4.596449297,6.40E+01
33.80258248,0.462551152,1.082947099,0.267898607,-4.345158893,4.40E+01
33.78675696,0.467528775,1.368658292,0.172602373,-4.045157523,3.50E+01
33.77110284,0.472124357,1.654581886,0.079933692,-3.695834095,2.70E+01
33.75562193,0.476330351,1.940231573,-0.008139171,-3.288538074,2.70E+01
33.74031622,0.480132493,2.225130124,-0.090656947,-2.833063426,4.00E+01
33.72518845,0.483498076,2.508946072,-0.169460199,-2.407361052,5.30E+01
33.71023942,0.486393272,2.790873297,-0.245580363,-2.049144508,6.60E+01
33.69546968,0.488804343,3.070006599,-0.317255276,-1.71762256,8.30E+01
33.68087802,0.490702731,3.345009255,-0.383921212,-1.377125773,7.40E+01
33.66645978,0.492043737,3.613727563,-0.445613121,-0.967920557,6.40E+01
33.65221238,0.49279262,3.874451701,-0.501700111,-0.43920221,6.00E+01
33.63813754,0.492917311,4.126445183,-0.552664804,0.174970253,5.00E+01
33.62423797,0.492393974,4.369162807,-0.598013934,0.84767283,6.70E+01
33.61051941,0.491222522,4.602729065,-0.63502054,1.564228207,6.70E+01
33.59698704,0.489390366,4.827109891,-0.662275204,2.285810272,5.40E+01
33.58364064,0.486854416,5.040995708,-0.680313121,2.999901566,6.00E+01
33.5704819,0.483577229,5.243489738,-0.689446981,3.672654712,4.10E+01
33.55751465,0.479519744,5.434157026,-0.690817844,4.220613622,4.00E+01
33.54474094,0.474642764,5.612242377,-0.685414327,4.591508157,5.10E+01
33.53216389,0.468932582,5.777423726,-0.672171273,4.773344113,4.80E+01
33.51978511,0.462371893,5.929141145,-0.650557625,4.766396243,5.40E+01
33.50760201,0.454933408,6.066039319,-0.6207824,4.61705439,5.10E+01
33.49561413,0.446604639,6.187345892,-0.582288999,4.362335064,4.80E+01
33.48382479,0.437380027,6.293128412,-0.53472916,3.979004316,4.40E+01
33.47223666,0.427263183,6.38351097,-0.477330791,3.467718644,4.10E+01
33.46085359,0.416279053,6.459114079,-0.408055817,2.848933445,5.10E+01
